IESNA91
[TEST] 
색보정계수(CCF): 1.000000
상관색온도(CCT): 6204.000000
연색지수(CRI): 81.500000
색좌표_X: 1.000000
색좌표_Y: 1.000000
색좌표_Z: 1.000000
전류(A): 0.062000
전압(V): 220.000000
전력(W): 12.400000
역율: 0.920000
광효율(lm/W): 74.642349
[MANUFAC] 
TILT=NONE
1 925.6 1.00 19 36 1 2 0.00 1.00 0.00
1.00 1 12.40
0.00 5.00 10.00 15.00 20.00 25.00 30.00 35.00 40.00 45.00 
50.00 55.00 60.00 65.00 70.00 75.00 80.00 85.00 90.00 
0.00 10.00 20.00 30.00 40.00 50.00 60.00 70.00 80.00 90.00 
100.00 110.00 120.00 130.00 140.00 150.00 160.00 170.00 180.00 190.00 
200.00 210.00 220.00 230.00 240.00 250.00 260.00 270.00 280.00 290.00 
300.00 310.00 320.00 330.00 340.00 350.00 
413.04586 412.10971 402.73318 387.95319 366.77727 342.19474 315.44168 283.70205 252.55145 217.93445 
185.23749 152.21484 120.70893 88.88179 58.40827 31.07794 10.15306 1.68674 0.59454 
413.91159 408.43030 400.62092 384.32226 365.77961 340.54109 311.85074 281.44307 249.05940 216.35842 
182.44768 150.28644 119.04642 87.79253 58.10432 31.42141 10.94380 2.37369 0.66718 
414.04961 408.09340 398.90337 385.55379 364.17226 341.44660 313.53504 283.25082 250.44157 217.68884 
184.67904 153.15928 121.11517 90.03575 60.43651 34.20628 14.34001 3.33592 0.74329 
412.12210 406.80731 398.81947 382.76599 363.72864 337.99303 311.26606 279.91092 248.67294 216.46321 
185.27357 152.58698 122.39666 90.84527 62.22702 36.72181 17.09968 4.22550 0.60343 
412.29598 406.31999 398.31281 381.65399 363.54671 338.54163 309.83281 281.46024 249.85297 218.81713 
186.63018 155.57152 124.51090 94.20194 64.85129 38.97196 18.77506 5.05478 0.46505 
409.85181 407.99733 397.75290 382.13391 362.73315 336.71345 310.44923 280.81338 249.33805 216.70437 
185.39020 153.02041 122.93435 92.75687 63.42500 37.98056 18.18991 5.13386 0.50755 
411.64869 405.74443 397.02346 382.76599 362.51318 339.28890 311.24889 281.91647 249.32632 217.29692 
183.79638 152.81531 121.37315 91.13340 61.52624 35.24857 16.22592 4.46371 0.63407 
409.39645 406.92902 395.46914 382.77642 361.47639 337.36183 310.15059 279.68596 247.58116 214.86888 
181.11974 149.38748 118.32238 87.69467 57.59084 31.33146 12.01821 3.13675 0.66372 
410.82491 405.16953 397.99569 381.56748 362.25388 338.96657 310.46401 281.62934 247.88764 215.42536 
181.40194 149.87822 118.56752 87.83602 57.02745 29.79693 9.61536 1.94324 0.55500 
409.64467 406.28456 397.71291 380.49027 362.06412 336.01465 308.84254 278.36596 245.80993 212.65037 
181.04115 148.41685 117.37845 86.32572 55.94560 29.07589 9.14240 1.64424 0.44528 
411.52024 405.69835 398.65732 382.62210 362.84639 339.41084 310.79418 282.48072 248.98659 215.94675 
182.21837 151.01689 119.18924 88.27193 58.06676 31.10068 10.71251 2.45425 0.57576 
411.08335 407.44981 397.51620 381.44359 362.36951 336.31026 309.32528 279.32971 249.27589 218.13268 
188.06933 156.97064 127.20929 96.14369 67.41427 39.11479 16.57285 4.21018 0.57773 
409.53056 406.67102 396.26880 383.39414 361.93610 338.45274 311.84987 281.18789 250.35115 218.97819 
188.94013 158.24569 129.04132 98.71508 70.16702 43.04574 20.44697 5.84997 0.67311 
411.45829 405.27038 398.14741 381.65312 360.52698 336.81822 309.05794 281.07291 249.76951 218.47110 
187.29194 155.54089 125.51413 96.35573 67.98311 42.39832 20.22210 5.67996 0.48433 
410.31435 406.57169 396.76067 383.29438 362.52166 339.12719 311.29236 282.15078 250.24291 218.21114 
185.79892 154.78127 124.02211 94.44560 65.37664 39.79826 18.95841 5.23369 0.49470 
411.05857 407.03662 397.78616 382.47451 362.76923 337.73698 311.11738 281.11768 249.67126 215.22915 
183.77514 151.43647 120.41043 90.36687 61.16300 34.64169 14.51694 3.76786 0.52485 
411.71738 407.20224 398.51343 381.86352 364.34289 340.46806 311.32105 281.80431 250.25834 217.07454 
183.50381 151.49133 119.89893 89.70365 59.19505 32.05054 11.16026 2.64897 0.54363 
411.50394 405.66184 399.09421 383.29786 363.50020 340.06182 312.98839 283.81768 251.27448 217.44757 
184.56290 151.94945 120.05360 88.36483 58.11421 30.87036 9.65094 1.67933 0.54857 
413.04586 411.95256 404.15491 388.64851 369.55574 346.63576 319.59101 288.51561 255.87895 221.39432 
187.42192 155.74401 123.89511 91.66566 61.16102 33.24652 11.83140 2.24026 0.44331 
413.91159 412.44878 403.82931 389.54402 371.32849 346.92593 318.97785 290.65114 256.06718 223.04514 
188.86797 156.18435 125.31647 93.41023 61.96708 33.97449 11.80273 2.06531 0.57921 
414.04961 409.51752 402.35651 388.54918 369.72288 345.29097 317.78087 288.15089 256.47755 221.60690 
188.92728 155.41685 124.07204 93.31928 62.29523 34.80823 12.91520 3.26377 0.69387 
412.12210 410.73645 400.72307 388.71980 370.15173 347.53322 320.57216 289.72346 258.93367 225.07090 
190.66837 158.34850 127.52854 95.91982 66.06853 38.66999 17.10561 5.00240 0.72600 
412.29598 409.98223 399.48654 388.14990 367.84036 344.42416 317.47049 289.01879 256.49668 225.36933 
191.11662 159.07647 128.31780 97.14845 67.98013 40.91469 19.95177 6.14699 0.47642 
409.85181 409.42666 399.08921 386.04654 366.84661 345.47138 318.10104 288.88577 258.05338 225.86251 
194.05767 161.22777 129.67934 98.82924 69.22949 42.43686 21.12898 6.60759 0.45418 
411.64869 407.58566 399.25940 386.83228 367.63387 342.34906 316.31502 286.20968 256.31279 224.58989 
192.70106 159.51433 128.19226 97.47807 67.40142 40.67056 19.61719 5.89297 0.57921 
409.39645 407.32722 398.99879 384.89108 365.95502 345.26728 317.95236 287.78182 257.36262 224.69531 
192.26418 159.71795 127.52509 96.99771 66.47181 38.96899 16.70234 4.77308 0.60442 
410.82491 406.95663 397.96091 385.33926 366.84900 342.60750 315.47733 285.58652 255.85287 223.15273 
188.69549 156.09884 125.33277 93.94792 63.98147 35.95628 13.25868 2.99640 0.57032 
409.64467 407.07422 398.55299 386.25716 367.60171 344.39112 316.97513 288.31108 257.05072 223.32097 
189.88406 156.86587 125.84229 95.19185 64.13814 35.41117 12.24060 1.85823 0.42799 
411.52024 407.47654 398.19718 385.72246 367.31110 342.11019 316.51325 285.28244 254.77391 222.34786 
188.94111 155.19740 124.29591 93.61582 62.48650 34.08717 11.07180 1.66944 0.49372 
411.08335 409.68619 398.86490 386.07980 367.51476 344.84779 317.97453 288.55170 255.96002 223.32879 
190.76129 157.28593 125.91889 94.67985 64.30716 36.06848 12.90779 2.82985 0.62320 
409.53056 408.29402 400.19142 384.89803 367.56997 342.42600 317.03295 287.28647 255.86656 222.89234 
191.03311 158.14982 125.59866 95.35791 65.36182 37.93115 16.64550 4.24428 0.58860 
411.45829 409.05455 399.93385 387.36176 366.51579 343.83947 316.26655 288.23153 256.39300 225.59668 
192.65461 161.04193 129.55778 98.60438 69.06889 42.08005 19.86084 5.57272 0.68448 
410.31435 406.66798 399.53848 385.68486 367.57541 341.95065 316.57107 285.65173 255.40011 224.10867 
192.31212 159.66359 128.70624 98.03504 68.26232 42.34839 20.50084 5.90730 0.51398 
411.05857 409.28495 398.82099 387.09920 367.63822 344.69846 316.85167 288.33217 255.73267 224.08193 
191.41860 159.01370 127.87153 96.92850 67.46219 41.30661 19.82377 5.59051 0.55154 
411.71738 408.27424 398.08959 386.11283 366.38647 343.34825 316.26894 285.88843 253.43695 222.07639 
188.24922 156.27232 124.58454 92.51472 63.14874 36.57305 16.37023 4.39353 0.62271 
411.50394 408.50247 397.37579 385.38621 365.57203 341.40204 312.97208 283.53251 251.64464 219.39334 
185.30472 153.77309 122.19404 90.36737 60.73946 33.76446 12.51638 3.10512 0.67608 
